Time (s),ax_body (m/s2),ay_body (m/s2),az_body (m/s2),wx_body (rad/s2),wy_body (rad/s2),wz_body (rad/s2),x_actual (m),y_actual (m),z_actual (m)
0.0,0.0,0.0,0.0,0.0,0.0,0.0,0.0,0.0,2.000002181523379
0.001,-2.0183145701430759e-19,6.224386963081301e-39,4.363046758086144,6.681911775230489e-52,9.25185853854297e-17,1.233581138472396e-16,3.2775240084990394e-25,1.010772949443714e-44,2.0000087246849705
0.002,5.0401380546982576e-20,-4.50939824074281e-38,4.360229667239162,2.6727647100921956e-51,9.25185853854297e-17,1.233581138472396e-16,1.9663178332976514e-24,1.212745673882191e-43,2.0000196266597805
0.003,9.582707989137435e-19,-2.6903160309265205e-37,4.357396769020889,5.345529420184391e-51,9.25185853854297e-17,1.233581138472396e-16,6.226048820680354e-24,5.759847013513908e-43,2.000034884606952
0.004,1.8661416898591163e-18,-6.049300420388473e-37,4.354547954231844,1.0691058840368783e-50,9.25185853854297e-17,1.233581138472396e-16,1.4416767786721105e-23,1.7782667780047714e-42,2.000054495669657
0.005,2.7740140635706327e-18,-1.0527892998743712e-36,4.351683112758677,1.0691058840368783e-50,9.25185853854297e-17,1.233581138472396e-16,2.784776258156985e-23,4.293594710354558e-42,2.000078456974985
0.006,3.681887930321097e-18,-1.6126093772328404e-36,4.3488021335663305,0.0,9.25185853854297e-17,1.233581138472396e-16,4.782778196649519e-23,8.848787368670109e-42,2.0001067656338325
0.007,4.5897633004693315e-18,-2.284390274753178e-36,4.345904904690089,1.0691058840368783e-50,9.25185853854297e-17,1.233581138472396e-16,7.566503105679446e-23,1.6331907141892885e-41,2.0001394187407886
0.008,5.497640184460897e-18,-3.068131993079656e-36,4.342991313227609,1.0691058840368783e-50,9.25185853854297e-17,1.233581138472396e-16,1.1266716672248503e-22,2.779215735650248e-41,2.000176413374024
0.009000000000000001,6.40551859282885e-18,-3.963834532861943e-36,4.340061245330892,0.0,9.25185853854297e-17,1.233581138472396e-16,1.6014129294633536e-22,4.4439778539601694e-41,2.000217746595175
0.01,7.313398536194487e-18,-4.971497894755152e-36,4.337114586198188,2.1382117680737565e-50,9.25185853854297e-17,1.233581138472396e-16,2.193939561387893e-22,6.764594351281677e-41,2.0002634154492296
0.011,8.221280025268093e-18,-6.091122079419881e-36,4.334151220065863,4.276423536147513e-50,9.25185853854297e-17,1.233581138472396e-16,2.917311404093338e-22,9.894265130344085e-41,2.000313416964409
0.012,9.129163070849709e-18,-7.322707087522268e-36,4.33117103020021,2.1382117680737565e-50,9.25185853854297e-17,1.233581138472396e-16,3.7845826279385387e-22,1.4002261985907907e-40,2.000367748152053
0.013000000000000001,1.0037047683829884e-17,-8.666252919734031e-36,4.3281738988892045,2.1382117680737565e-50,9.25185853854297e-17,1.233581138472396e-16,4.808801684375158e-22,1.927391775518815e-40,2.0004264060065
0.014,1.0944933875190446e-17,-1.0121759576732521e-35,4.325159707434212,4.276423536147513e-50,9.25185853854297e-17,1.233581138472396e-16,6.003011257327135e-22,2.591061534582768e-40,2.000489387504969
0.015,1.1852821656005278e-17,-1.1689227059200754e-35,4.3221283361416365,2.1382117680737565e-50,9.25185853854297e-17,1.233581138472396e-16,7.380248214116092e-22,3.412977663999424e-40,2.0005566896074383
0.016,1.2760711037441091e-17,-1.3368655367827504e-35,4.3190796643145415,0.0,9.25185853854297e-17,1.233581138472396e-16,8.953543555927944e-22,4.416485127315709e-40,2.0006283092565247
0.017,1.3668602030758203e-17,-1.5160044503307272e-35,4.316013570244186,2.1382117680737565e-50,9.25185853854297e-17,1.233581138472396e-16,1.0735922367815925e-21,5.6265305286081e-40,2.000704243377362
0.018000000000000002,1.4576494647311337e-17,-1.706339446634043e-35,4.312929931201541,0.0,9.25185853854297e-17,1.233581138472396e-16,1.27404037682352e-21,7.069660964855733e-40,2.0007844888774766
0.019,1.5484388898550384e-17,-1.907870525763318e-35,4.309828623428743,4.276423536147513e-50,9.25185853854297e-17,1.233581138472396e-16,1.4980000858104173e-21,8.774022865337332e-40,2.0008690426466638
0.02,1.639228479602124e-17,-2.1205976877897663e-35,4.3067095221304985,0.0,9.25185853854297e-17,1.233581138472396e-16,1.746772066938757e-21,1.0769360817900227e-39,2.000957901556863
0.021,1.730018235136656e-17,-2.3445209327851993e-35,4.303572501465448,4.276423536147513e-50,9.25185853854297e-17,1.233581138472396e-16,2.0216564113196305e-21,1.3087016381947823e-39,2.00105106246203
0.022,1.8208081576326597e-17,-2.57964026082203e-35,4.300417434537474,4.276423536147513e-50,9.25185853854297e-17,1.233581138472396e-16,2.3239525927399112e-21,1.5759926887989994e-39,2.001148522198011
0.023,1.9115982482739988e-17,-2.801078312877891e-35,4.297244193386982,-3.4952061953694245e-35,9.25185853854297e-17,6.16790569236198e-17,2.6549594623740874e-21,1.882821619871058e-39,2.0012502775824137
0.024,2.0023885082544587e-17,-2.886886288304934e-35,4.294052648982097,-3.495206195369419e-35,9.25185853854297e-17,6.16790569236198e-17,3.015975243446248e-21,2.234451341859841e-39,2.001356325414476
0.025,2.093178938777826e-17,-2.863743785882803e-35,4.290842671209864,-3.4952061953694224e-35,9.25185853854297e-17,6.16790569236198e-17,3.4082975258417095e-21,2.636795243508345e-39,2.0014666624749387
0.026000000000000002,2.1839695410579705e-17,-2.8461990271787416e-35,4.287614128867364,-3.4952061953694213e-35,9.25185853854297e-17,6.16790569236198e-17,3.8332232606677564e-21,3.09584437177672e-39,2.0015812855259103
0.027,2.2747603163189308e-17,-2.83425201010713e-35,4.284366889652814,-3.49520619536942e-35,9.25185853854297e-17,6.16790569236198e-17,4.292048754762968e-21,3.617667352017746e-39,2.001700191310737
0.028,2.365551265794994e-17,-2.8279027325648915e-35,4.281100820156608,-3.495206195369419e-35,9.25185853854297e-17,6.16790569236198e-17,4.786069665154604e-21,4.20841030727661e-39,2.0018233765538667
0.029,2.4563423907307766e-17,-2.827151192431333e-35,4.277815785852328,-3.495206195369414e-35,9.25185853854297e-17,6.16790569236198e-17,5.316580993463504e-21,4.8742967767048684e-39,2.001950837960715
0.03,2.5471336923813182e-17,-2.8319973875680215e-35,4.274511651087705,-3.495206195369414e-35,9.25185853854297e-17,6.16790569236198e-17,5.884877080255957e-21,5.621627633078404e-39,2.002082572217528
0.031,2.637925172012152e-17,-2.842441315818635e-35,4.271188279075561,-3.495206195369417e-35,9.25185853854297e-17,6.16790569236198e-17,6.492251599342008e-21,6.456780999409027e-39,2.0022185759912468
0.032,2.7287168308993986e-17,-2.8584829750088055e-35,4.267845531884676,-3.495206195369416e-35,9.25185853854297e-17,6.16790569236198e-17,7.139997552019624e-21,7.386212164639277e-39,2.0023588459293666
0.033,2.819508670329847e-17,-2.880122362945999e-35,4.264483270430665,-3.495206195369415e-35,9.25185853854297e-17,6.16790569236198e-17,7.829407261264182e-21,8.416453498409833e-39,2.002503378659799
0.034,2.910300691601041e-17,-2.907359477419352e-35,4.261101354466781,-3.4952061953694096e-35,9.25185853854297e-17,6.16790569236198e-17,8.561772365862706e-21,9.554114364888847e-39,2.00265217079073
0.035,3.0010928960213607e-17,-2.940194316199534e-35,4.257699642574709,-3.4952061953694085e-35,9.25185853854297e-17,6.16790569236198e-17,9.338383814492282e-21,1.0805881035652347e-38,2.002805218910478
0.036000000000000004,3.091885284910116e-17,-2.9786268770385966e-35,4.254277992155307,-3.4952061953694106e-35,9.25185853854297e-17,6.16790569236198e-17,1.0160531859742084e-20,1.2178516601604777e-38,2.002962519587352
0.037,3.1826778595976226e-17,-3.022657157669832e-35,4.250836259419344,-3.4952061953694106e-35,9.25185853854297e-17,6.16790569236198e-17,1.1029506052078427e-20,1.367886088392858e-38,2.0031240693695054
0.038,3.273470621425297e-17,-3.072285155807632e-35,4.247374299378178,-3.495206195369419e-35,9.25185853854297e-17,6.16790569236198e-17,1.1946595233752264e-20,1.53138303440516e-38,2.0032898647847914
0.039,3.3642635717457336e-17,-3.127510869147316e-35,4.243891965834424,-3.495206195369417e-35,9.25185853854297e-17,6.16790569236198e-17,1.2913087532648532e-20,1.7090417992620978e-38,2.003459902340616
0.04,3.455056711922802e-17,-3.188334295365025e-35,4.240389111372595,-3.4952061953694213e-35,9.25185853854297e-17,6.16790569236198e-17,1.393027035607676e-20,1.9015693297472056e-38,2.00363417852379
0.041,3.545850043331725e-17,-3.2547554321175314e-35,4.23686558734971,-3.4952061953694235e-35,9.25185853854297e-17,6.16790569236198e-17,1.499943038450235e-20,2.1096802090580673e-38,2.0038126898003794
0.042,3.6366435673591706e-17,-3.3267742770421103e-35,4.233321243885886,-3.4952061953694235e-35,9.25185853854297e-17,6.16790569236198e-17,1.6121853565217863e-20,2.3340966473987132e-38,2.0039954326155556
0.043000000000000003,3.7274372854033374e-17,-3.404390827756402e-35,4.229755929854912,-3.4952061953694256e-35,9.25185853854297e-17,6.16790569236198e-17,1.729882510595381e-20,2.575548472467993e-38,2.0041824033934432
0.044,3.8182311988740414e-17,-3.487605081858239e-35,4.226169492874801,-3.49520619536943e-35,9.25185853854297e-17,6.16790569236198e-17,1.8531629468428222e-20,2.8347731198427266e-38,2.004373598536967
0.045,3.9090253091928043e-17,-3.576417036925509e-35,4.222561779298305,-3.4952061953694277e-35,9.25185853854297e-17,6.16790569236198e-17,1.9821550361834435e-20,3.112515623254416e-38,2.0045690144276973
0.046,3.9998196177929447e-17,-3.670826690516019e-35,4.218932634203467,-3.4952061953694363e-35,9.25185853854297e-17,6.16790569236198e-17,2.1169870736266457e-20,3.4095286047582885e-38,2.0047686474256956
0.047,4.0906141261196574e-17,-3.770834040167305e-35,4.215281901384099,-3.495206195369434e-35,9.25185853854297e-17,6.16790569236198e-17,2.2577872776081275e-20,3.7265722647934295e-38,2.0049724938693565
0.048,4.1814088356301116e-17,-3.876439083396534e-35,4.211609423340295,-3.4952061953694427e-35,9.25185853854297e-17,6.16790569236198e-17,2.404683789319747e-20,4.0644143721327477e-38,2.0051805500752495
0.049,4.27220374779353e-17,-3.9876418177003166e-35,4.2079150412689135,-3.4952061953694406e-35,9.25185853854297e-17,6.16790569236198e-17,2.5578046720329484e-20,4.423830253721499e-38,2.0053928123379605
0.05,4.362998864091281e-17,-4.1044422405545655e-35,4.204198595054065,-3.495206195369445e-35,9.25185853854297e-17,6.16790569236198e-17,2.7172779104156926e-20,4.805602784403089e-38,2.0056092769299307
0.051000000000000004,4.4537941860169704e-17,-4.226840349414352e-35,4.200459923257586,-3.495206195369449e-35,9.25185853854297e-17,6.16790569236198e-17,2.883231409842822e-20,5.210522376530844e-38,2.0058299401012945
0.052000000000000005,4.544589715076523e-17,-4.3548361417137815e-35,4.196698863109532,-3.495206195369451e-35,9.25185853854297e-17,6.16790569236198e-17,3.0557929956997955e-20,5.639386969464448e-38,2.006054798079715
0.053,4.63538545278827e-17,-4.488429614865756e-35,4.192915250498649,-3.495206195369451e-35,9.25185853854297e-17,6.16790569236198e-17,3.235090412679728e-20,6.093002018949706e-38,2.0062838470702204
0.054,4.726181400683044e-17,-4.627620766261931e-35,4.189108919962864,-3.4952061953694577e-35,9.25185853854297e-17,6.16790569236198e-17,3.4212513240736684e-20,6.572180486380296e-38,2.0065170832550385
0.055,4.816977560304262e-17,-4.7724095932725053e-35,4.185279704679795,-3.4952061953694534e-35,9.25185853854297e-17,6.16790569236198e-17,3.614403311054043e-20,7.077742827940145e-38,2.006754502793427
0.056,4.907773933208017e-17,-4.922796093246072e-35,4.181427436457243,-3.49520619536946e-35,9.25185853854297e-17,6.16790569236198e-17,3.8146738719512054e-20,7.610516983625061e-38,2.0069961018215063
0.057,4.998570520963158e-17,-5.078780263509509e-35,4.177551945723728,-3.49520619536946e-35,9.25185853854297e-17,6.16790569236198e-17,4.022190421523015e-20,8.17133836614223e-38,2.0072418764520896
0.058,5.089367325151383e-17,-5.240362101367752e-35,4.173653061519024,-3.495206195369462e-35,9.25185853854297e-17,6.16790569236198e-17,4.237080290217383e-20,8.761049849686166e-38,2.0074918227745093
0.059000000000000004,5.1801643473673314e-17,-5.407541604103753e-35,4.169730611484733,-3.495206195369466e-35,9.25185853854297e-17,6.16790569236198e-17,4.45947072342771e-20,9.380501758589715e-38,2.0077459368544455
0.06,5.27096158921866e-17,-5.580318768978243e-35,4.165784421854854,-3.4952061953694684e-35,9.25185853854297e-17,6.16790569236198e-17,4.689488880741152e-20,1.0030551855848641e-37,2.0080042147337513
0.061,5.361759052326136e-17,-5.758693593229621e-35,4.161814317446426,-3.4952061953694684e-35,9.25185853854297e-17,6.16790569236198e-17,4.927261835179634e-20,1.0712065331518397e-37,2.008266652430277
0.062,5.4525567383237245e-17,-5.942666074073791e-35,4.157820121650159,-3.495206195369475e-35,9.25185853854297e-17,6.16790569236198e-17,5.172916572433553e-20,1.1425914790981553e-37,2.0085332459376914
0.063,5.543354648858672e-17,-6.13223620870405e-35,4.153801656421129,-3.4952061953694705e-35,9.25185853854297e-17,6.16790569236198e-17,5.42657999008809e-20,1.217298024308446e-37,2.0088039912253053
0.064,5.634152785591594e-17,-6.327403994290916e-35,4.1497587422694995,-3.495206195369477e-35,9.25185853854297e-17,6.16790569236198e-17,5.68837889684206e-20,1.2954149088141602e-37,2.0090788842378893
0.065,5.724951150196553e-17,-6.52816942798192e-35,4.145691198251306,-3.495206195369477e-35,9.25185853854297e-17,6.16790569236198e-17,5.95844001171923e-20,1.377031610580616e-37,2.0093579208954937
0.066,5.815749744361164e-17,-6.734532506901632e-35,4.141598841959263,-3.4952061953694855e-35,9.25185853854297e-17,6.16790569236198e-17,6.236889963272033e-20,1.4622383442805227e-37,2.009641097093264
0.067,5.90654856978665e-17,-6.946493228151336e-35,4.137481489513645,-3.4952061953694833e-35,9.25185853854297e-17,6.16790569236198e-17,6.523855288777596e-20,1.551126060053817e-37,2.0099284087012563
0.068,5.99734762818795e-17,-7.164051588808984e-35,4.1333389555532225,-3.4952061953694876e-35,9.25185853854297e-17,6.16790569236198e-17,6.819462433426022e-20,1.6437864422536525e-37,2.010219851564253
0.069,6.088146921293787e-17,-7.387207585929004e-35,4.129171053226257,-3.4952061953694855e-35,9.25185853854297e-17,6.16790569236198e-17,7.123837749500843e-20,1.7403119081783901e-37,2.010515421501574
0.07,6.178946450846763e-17,-7.615961216542236e-35,4.1249775941815585,-3.495206195369494e-35,9.25185853854297e-17,6.16790569236198e-17,7.437107495551563e-20,1.840795606789426e-37,2.0108151143068858
0.07100000000000001,6.26974621860343e-17,-7.850312477655709e-35,4.120758388559638,-3.495206195369494e-35,9.25185853854297e-17,6.16790569236198e-17,7.759397835558232e-20,1.9453314174146983e-37,2.0111189257480144
0.07200000000000001,6.360546226334373e-17,-8.09026136625254e-35,4.116513244983912,-3.495206195369494e-35,9.25185853854297e-17,6.16790569236198e-17,8.090834838087961e-20,2.0540139484377096e-37,2.011426851566751
0.073,6.451346475824304e-17,-8.268458456184643e-35,4.112241970552004,-2.6606365528016375e-34,9.25185853854297e-17,-2.5013557996309746e-51,8.43154447544331e-20,2.1669608072749404e-37,2.0117388874786584
0.074,6.542146968872119e-17,-7.929101545056385e-35,4.107944370827138,-2.6606365528016375e-34,9.25185853854297e-17,-2.4517281684707443e-51,8.781652622802467e-20,2.284334584921902e-37,2.012055029172876
0.075,6.632947707291e-17,-7.141530682200093e-35,4.103620249829625,-2.6606365528016375e-34,9.25185853854297e-17,-2.4021005373105134e-51,9.141285057351146e-20,2.4063201587054376e-37,2.0123752723119233
0.076,6.72374869290847e-17,-6.353957675237798e-35,4.09926941002845,-2.6606365528016375e-34,9.25185853854297e-17,-2.352472906150284e-51,9.510567457406123e-20,2.533102280554916e-37,2.012699612531502
0.077,6.814549927566491e-17,-5.56638250819306e-35,4.094891652332956,-2.6606365528016375e-34,9.25185853854297e-17,-2.3028452749900537e-51,9.88962540153033e-20,2.6648655758534186e-37,2.013028045440295
0.078,6.905351413121526e-17,-4.7788051649636034e-35,4.090486776084671,-2.6606365528016375e-34,9.25185853854297e-17,-2.253217643829824e-51,1.0278584367639443e-19,2.8017945422776386e-37,2.0133605666197654
0.079,6.99615315144462e-17,-3.9912256293207454e-35,4.08605457904922,-2.6606365528016375e-34,9.25185853854297e-17,-2.2035900126695937e-51,1.0677569732099862e-19,2.9440735486263818e-37,2.0136971716239542
0.08,7.08695514442147e-17,-3.2036438849086537e-35,4.081594857408396,-2.6606365528016375e-34,9.25185853854297e-17,-2.153962381509364e-51,1.1086706768818024e-19,3.091886833637561e-37,2.0140378559792746
0.081,7.177757393952496e-17,-2.416059915243764e-35,4.077107405752335,-2.6606365528016375e-34,9.25185853854297e-17,-2.1043347503491346e-51,1.1506120648320965e-19,3.24541850479358e-37,2.0143826151843065
0.082,7.268559901952923e-17,-1.6284737037142313e-35,4.072592017071868,-2.6606365528016375e-34,9.25185853854297e-17,-2.0547071191889046e-51,1.1935936436828044e-19,3.404852537114984e-37,2.014731444709588
0.083,7.35936267035283e-17,-8.408852335791964e-36,4.068048482750983,-2.6606365528016375e-34,9.25185853854297e-17,-2.005079488028675e-51,1.2376279095313751e-19,3.570372771942283e-37,2.0150843399974074
0.084,7.450165701097245e-17,-5.329448796833011e-37,4.06347659255948,-2.6606365528016375e-34,9.25185853854297e-17,-1.9554518568684446e-51,1.2827273478561539e-19,3.742162915705822e-37,2.0154412964615904
0.085,7.540968996146181e-17,7.342985501188674e-36,4.058876134645761,-2.6606365528016375e-34,9.25185853854297e-17,-1.9058242257082143e-51,1.3289044334208561e-19,3.9204065386835954e-37,2.0158023094872886
0.08600000000000001,7.631772557474731e-17,1.5218938978135335e-35,4.054246895529813,-2.6606365528016375e-34,9.25185853854297e-17,-1.856196594547985e-51,1.3761716301781275e-19,4.10528707374689e-37,2.0161673744307644
0.08700000000000001,7.722576387073107e-17,2.3094915723780344e-35,4.0495886600963615,-2.6606365528016375e-34,9.25185853854297e-17,-1.8065689633877543e-51,1.4245413911721796e-19,4.296987815093646e-37,2.016536486619176
0.088,7.813380486946719e-17,3.097091591206496e-35,4.044901211588217,-2.6606365528016375e-34,9.25185853854297e-17,-1.7569413322275243e-51,1.4740261584404948e-19,4.495691916969417e-37,2.016909641350359
0.089,7.90418485911622e-17,3.8846939718253543e-35,4.040184331599816,-2.6606365528016375e-34,9.25185853854297e-17,-1.7073137010672946e-51,1.5246383629145904e-19,4.7015823923758275e-37,2.017286833892608
0.09,7.994989505617581e-17,4.67229873189378e-35,4.035437800070985,-2.6606365528016375e-34,9.25185853854297e-17,-1.657686069907064e-51,1.5763904243198358e-19,4.914842111766404e-37,2.0176680594844547
0.091,8.085794428502129e-17,5.459905889204216e-35,4.030661395280891,-2.6606365528016375e-34,9.25185853854297e-17,-1.6080584387468346e-51,1.6292947510743146e-19,5.135653801729663e-37,2.018053313334446
0.092,8.176599629836612e-17,6.247515461682855e-35,4.025854893842245,-2.6606365528016375e-34,9.25185853854297e-17,-1.5584308075866037e-51,1.6833637401867195e-19,5.364200043659359e-37,2.0184425906209196
0.093,8.267405111703247e-17,7.035127467390047e-35,4.021018070695741,-2.6606365528016375e-34,9.25185853854297e-17,-1.5088031764263737e-51,1.7386097771532788e-19,5.600663272411748e-37,2.018835886491778
0.094,8.35821087619977e-17,7.822741924520723e-35,4.016150699104715,-2.6606365528016375e-34,9.25185853854297e-17,-1.459175545266144e-51,1.795045235853699e-19,5.845225774949788e-37,2.019233196064261
0.095,8.449016925439479e-17,8.610358851404859e-35,4.011252550650104,-2.6606365528016375e-34,9.25185853854297e-17,-1.4095479141059137e-51,1.8526824784461205e-19,6.098069688974129e-37,2.0196345144247174
0.096,8.539823261551289e-17,9.397978266507839e-35,4.006323395225625,-2.6606365528016375e-34,9.25185853854297e-17,-1.3599202829456834e-51,1.911533855261076e-19,6.35937700154079e-37,2.0200398366283716
0.097,8.630629886679758e-17,1.0185600188430743e-34,4.001363001033267,-2.6606365528016375e-34,9.25185853854297e-17,-1.3102926517854535e-51,1.9716117046944437e-19,6.629329547665416e-37,2.020449157699094
0.098,8.721436802985141e-17,1.0973224635910806e-34,3.9963711345790673,-2.6606365528016375e-34,9.25185853854297e-17,-1.2606650206252232e-51,2.0329283530993872e-19,6.9081090089139795e-37,2.0208624726291635
0.099,8.812244012643421e-17,1.176085162782163e-34,3.991347560669171,-2.6606365528016375e-34,9.25185853854297e-17,-1.2110373894649934e-51,2.0954961146772734e-19,7.195896911979827e-37,2.0212797763790347
